-19.947
-18.185
-22.727
-30.397
-35.925
-35.51
-29.377
-21.686
-19.776
-22.515
-30.181
-36.456
-34.067
-28.616
-21.832
-15.073
-17.706
-23.738
-31.347
-32.119
-25.892
-17.485
-10.895
-9.0193
-15.965
-21.771
-23.949
-20.319
-11.486
-2.9646
0.68181
0.012699
-7.9965
-10.726
-5.8264
4.4164
15.933
23.39
19.967
12.712
12.48
15.79
27.53
40.933
47.934
47.562
44.173
39.819
43.868
55.056
65.908
72.984
71.595
68.5
61.603
63.609
67.891
80.556
85.347
89.177
82.001
75.015
73.875
76.705
83.699
91.191
88.662
79.849
69.86
62.286
58.318
64.546
68.925
67.263
55.848
43.713
29.59
26.895
28.533
33.842
31.843
25.557
14.25
4.8995
0.87802
1.9935
8.8354
13.97
10.652
-0.42597
-8.3806
-12.448
-7.1822
-1.4594
5.4049
4.2512
-2.9822
-11.043
-17.2
-11.312
-4.2412
4.2724
1.685
-3.212
-12.226
-14.738
-14.615
-8.3608
-0.051054
4.1897
1.7526
-8.3027
-14.327
-13.009
-2.4603
3.7498
6.7454
4.5539
-3.6519
-7.9997
-8.1223
-2.1102
5.7317
9.9695
8.7539
0.67653
-4.376
-7.543
-2.2844
6.5282
10.492
10.351
6.0357
-4.1195
-9.2964
-4.3382
3.8239
10.365
12.72
6.7374
-4.3132
-9.7866
-8.5861
-0.27844
7.0173
8.1839
4.67
-5.3953
-11.343
-10.923
-4.3433
3.7845
5.6547
0.41506
-6.7057
-12.906
-13.961
-8.0369
-2.3653
1.7849
-1.3394
-8.223
-17.168
-21.431
-16.391
-6.7026
-1.6343
-1.5329
-10.711
-19.985
-24.426
-18.609
-13.315
-5.494
-5.9943
-10.12
-20.464
-24.084
-23.729
-16.119
-8.6775
-7.6736
-10.498
-20.707
-25.484
-23.746
-17.023
-6.0754
1.4715
-1.9071
-8.8421
-12.72
-12.641
-5.905
3.4471
10.469
7.5359
0.96535
-6.8608
-6.3146
-1.5761
8.001
12.253
13.644
7.575
-0.87174
-6.5927
-1.8894
1.565
6.6587
7.2783
-1.9928
-12.603
-16.35
-12.86
-1.9857
5.5884
5.4609
-0.63189
-14.982
-23.629
-23.614
-18.738
-12.916
-11.66
-17.209
-29.017
-36.588
-37.321
-32.711
-27.684
-24.87
-24.68
-32.901
-40.495
-43.076
-36.715
-30.393
-26.008
-24.212
-30.002
-39.585
-42.741
-40.342
-31.745
-23.184
-22.233
-30.658
-39.773
-46.877
-48.226
-45.813
-51.859
-59.158
-66.812
-66.544
-57.99
-37.385
4.8676
71.465
150.13
223.23
284.64
342.62
389.18
413.53
411.02
373.57
284.03
173.32
66.976
-9.8129
-46.841
-53.678
-47.111
-39.058
-30.821
-25.598
-22.899
-23.42
-21.642
-17.052
-17.275
-25.85
-34.871
-41.71
-42.942
-36.748
-31.145
-29.518
-35.831
-46.146
-53.583
-51.45
-43.676
-36.028
-35.789
-39.172
-49.841
-53.491
-52.453
-49.95
-40.751
-36.645
-38.376
-43.865
-54.816
-58.447
-52.724
-41.975
-38.563
-36.225
-42.518
-51.107
-51.705
-50.725
-43.147
-32.247
-28.952
-37.328
-45.682
-49.059
-46.482
-35.925
-26.765
-22.96
-26.668
-35.56
-40.163
-37.6
-28.23
-16.429
-11.649
-13.646
-21.459
-23.625
-19.953
-12.312
-0.62079
6.8326
8.9659
7.0085
2.7308
4.2344
14.403
25.452
33.726
37.644
35.08
31.635
28.431
36.65
50.08
60.617
63.701
61.468
52.452
50.263
55.698
65.942
75.938
78.883
73.462
66.71
58.972
60.273
64.524
70.453
73.468
65.576
56.644
46.269
40.846
40.589
45.468
45.012
39.061
25.935
13.568
6.1397
5.4601
8.5983
10.82
7.6069
-3.0439
-14.46
-18.552
-19.243
-11.822
-7.3815
-6.3904
-12.629
-20.561
-31.657
-27.209
-21.039
-11.13
-9.2014
-14.559
-24.232
-29.953
-28.703
-24.521
-15.612
-12.556
-15.39
-23.299
-29.703
-28.176
-23.455
-14.558
-7.978
-9.9078
-16.039
-24.429
-26.879
-21.566
-12.417
-7.1726
-5.3683
-13.02
-20.458
-23.578
-20.279
-12.835
-4.3563
-4.3441
-9.6052
-17.589
-20.714
-21.237
-13.008
-4.0686
-3.1725
-8.5944
-17.298
-20.98
-21.661
-15.451
-6.5882
-3.6055
-8.4644
-17.323
-25.651
-25.098
-19.43
-11.612
-7.0582
-9.9356
-16.987
-25.346
-27.846
-25.616
-14.503
-9.2102
-12.319
-19.933
-28.419
-31.626
-28.364
-19.872
-12.309
-12.262
-19.572
-27.638
-31.795
-33.266
-23.956
-16.989
-18.147
-21.651
-28.376
-35.997
-36.601
-29.379
-21.579
-18.666
-22.53
-32.324
-35.587
-39.036
-32.437
-22.682
-20.116
-22.919
-29.912
-35.292
-39.869
-35.694
-25.556
-20.182
-22.237
-29.881
-37.451
-39.71
-35.413
-25.835
-17.222
-15.214
-21.613
-25.727
-28.839
-21.218
-12.861
-6.9477
-6.2119
-11.76
-16.414
-21.914
-16.472
-8.3362
-0.67697
4.1809
0.41713
-7.2108
-12.41
-11.974
-7.5656
-1.8852
2.8077
-1.7777
-13.681
-22.205
-27.028
-21.951
-10.646
-4.9984
-3.9527
-10.786
-24.66
-32.031
-29.525
-23.605
-17.86
-19.083
-28.865
-40.131
-42.992
-41.944
-36.412
-29.772
-30.502
-36.246
-45.612
-49.61
-48.951
-44.118
-34.998
-32.375
-33.816
-43.87
-49.82
-51.729
-47.929
-37.507
-32.443
-33.385
-40.023
-46.945
-51.45
-48.651
-40.924
-42.558
-55.223
-74.506
-88.13
-82.778
-65.768
-39.062
3.9396
66.169
137.6
215.11
283.82
349.61
400.27
423.29
400.83
323
202.27
79.977
-10.276
-50.976
-58.407
-52.817
-46.843
-35.544
-29.556
-29.794
-33.186
-28.63
-25.314
-25.202
-33.032
-41.131
-50.559
-50.515
-43.686
-39.519
-40.471
-47.774
-58.082
-61.423
-60.502
-51.239
-45.561
-43.143
-50.172
-59.333
-59.895
-59.698
-50.31
-43.908
-41.687
-48.249
-54.438
-61.487
-59.051
-52.332
-44.056
-42.172
-40.564
-50.876
-53.122
-56.016
-51.861
-41.108
-35.122
-33.514
-39.515
-47.299
-46.26
-40.062
-30.531
-22.804
-21.901
-26.922
-31.813
-32.014
-24.356
-14.491
-0.95119
1.7134
-3.9404
-7.9675
-7.7547
-0.90732
11.352
21.958
29.501
31.064
24.694
23.344
27.657
35.536
48.09
54.101
53.57
46.998
45.621
43.847
56.249
65.136
70.018
68.384
63.241
54.556
50.836
53.176
60.612
62.103
60.865
50.936
38.276
33.212
26.778
32.418
34.827
31.587
21.157
8.2551
-2.636
-4.0177
-0.8769
2.8477
1.627
-4.6994
-16.204
-23.795
-24.583
-18.555
-14.754
-9.6556
-16.351
-24.172
-30.624
-31.218
-26.564
-18.617
-11.932
-13.813
-19.998
-28.478
-32.959
-27.59
-18.366
-12.106
-12.358
-19.073
-26.513
-30.574
-25.222
-17.791
-10.374
-10.405
-15.641
-24.558
-29.649
-26.21
-16.049
-11.133
-8.1925
-11.548
-20.232
-26.965
-26.717
-19.522
-9.5956
-5.535
-9.3871
-19.324
-23.736
-26.181
-20.421
-10.514
-8.9685
-7.9503
-18.097
-23.442
-29.825
-22.495
-15.402
-8.2357
-8.4514
-16.038
-23.386
-26.483
-22.257
-17.916
-9.4665
-9.3735
-17.516
-25.464
-30.679
-28.334
-21.144
-16.107
-14.071
-19.45
-28.252
-35.083
-32.816
-28.504
-19.481
-16.44
-22.406
-29.434
-35.825
-36.16
-32.315
-23.433
-18.995
-22.052
-29.168
-37.411
-42.729
-37.433
-29.437
-23.327
-24.503
-31.999
-40.299
-43.44
-40.3
-30.995
-24.495
-24.324
-31.447
-39.45
-41.733
-38.391
-31.14
-22.049
-21.027
-24.471
-36.318
-41.12
-38.779
-33.429
-24.45
-16.491
-19.485
-22.452
-26.756
-28.077
-21.315
-11.523
-8.0803
-10.036
-15.059
-22.321
-21.757
-16.557
-9.5313
-4.2935
-2.3704
-6.8975
-18.334
-21.584
-18.414
-12.963
-7.3425
-12.201
-19.48
-26.611
-31.861
-27.354
-18.97
-8.9134
-9.0643
-16.652
-28.467
-37.085
-37.587
-30.266
-24.479
-22.692
-28.668
-38.437
-45.55
-50.874
-46.313
-39.732
-33.3
-34.047
-39.84
-47.083
-50.741
-48.793
-41.793
-35.313
-34.111
-40.608
-49.311
-51.866
-47.727
-39.986
-33.037
-32.863
-39.453
-48.941
-53.231
-53.392
-53.624
-58.525
-64.033
-66.018
-62.848
-54.067
-31.164
12.138
86.497
162.9
233.99
290.65
341.85
375.38
382.48
351.77
269.38
155.09
44.572
-32.8
-68.785
-74.001
-62.894
-37.243
-18.027
-17.645
-29.406
-42.858
-40.59
-34.886
-25.132
-27.085
-35.552
-46.762
-55.927
-53.296
-46.882
-39.894
-39.106
-44.674
-52.431
-59.051
-56.628
-51.358
-45.511
-39.594
-43.517
-49.4
-55.701
-56.084
-52.355
-45.528
-40.036
-41.005
-49.098
-55.402
-59.783
-52.477
-44.413
-39.266
-39.488
-42.056
-50.362
-53.423
-49.211
-43.936
-31.547
-30.44
-35.495
-43.362
-48.593
-44.359
-33.268
-25.208
-20.038
-23.303
-28.137
-31.125
-26.985
-17.632
-6.43
-1.2495
0.73606
-4.4905
-8.0342
-5.3174
1.7438
15.796
24.182
24.889
22.583
18.393
18.331
27.836
39.779
47.611
48.204
43.762
40.764
38.881
43.964
53.935
64.153
64.387
60.629
53.933
45.578
47.518
57.437
61.619
64.083
57.99
46.035
37.753
33.718
37.191
41.691
38.051
33.916
20.387
8.6605
3.4985
7.8682
12.11
13.372
4.7591
-4.7434
-14.803
-16.529
-14.817
-8.0156
-3.5422
-6.1634
-12.448
-20.066
-25.733
-24.824
-18.252
-8.2525
-9.8215
-15.16
-23.642
-30.216
-25.711
-19.002
-11.584
-10.671
-14.556
-24.763
-28.507
-27.744
-21.004
-14.034
-7.4776
-10.893
-16.9
-24.82
-25.69
-20.835
-10.405
-3.4424
-4.5418
-12.229
-19.988
-24.233
-19.341
-6.8337
-0.82633
-3.6245
-9.6313
-16.801
-19.287
-16.636
-7.4955
-0.68172
-0.019683
-5.9434
-14.229
-20.007
-15.901
-9.399
-3.8049
0.49136
-4.1728
-12.527
-19.642
-16.117
-12.257
-5.927
-1.1173
-4.6244
-12.978
-20.167
-21.973
-17.784
-11.072
-5.1484
-7.5681
-14.546
-23.29
-27.229
-22.038
-15.526
-7.8128
-9.9151
-18.941
-28.831
-32.014
-28.325
-20.444
-12.934
-13.331
-20.016
-27.998
-35.696
-31.808
-24.609
-17.114
-15.621
-19.985
-29.224
-34.512
-33.28
-27.554
-21.075
-16.978
-20.334
-28.814
-35.283
-36.256
-29.963
-21.976
-16.872
-19.378
-26.625
-32.56
-34.428
-31.974
-23.264
-15.608
-17.965
-23.194
-31.037
-29.973
-26.079
-15.236
-3.9678
-3.5698
-8.2253
-16.975
-20.467
-16.597
-9.6205
-0.33474
5.1665
1.0188
-8.0092
-15.301
-11.282
-2.7619
5.7224
8.0246
2.8627
-8.6274
-17.292
-21.444
-19.134
-9.9608
-3.6895
-3.2117
-9.6385
-17.736
-24.594
-19.97
-15.096
-11.441
-12.96
-23.354
-36.207
-40.991
-36.931
-26.061
-22.929
-24.707
-31.413
-41.034
-47.335
-41.394
-36.54
-31.461
-29.056
-33.089
-39.886
-46.05
-47.142
-38.886
-32.564
-29.148
-31.007
-37.297
-45.079
-48.579
-41.513
-34.217
-33.554
-43.799
-63.36
-78.89
-75.04
-56.242
-28.878
13.084
71.356
144.44
219.28
291.72
356.29
405.41
420.25
385.94
298.02
174.71
56.953
-24.843
-60.213
-58.58
-47.423
-32.339
-23.843
-24.83
-26.975
-28.884
-25.671
-22.25
-23.051
-34.292
-45.04
-50.5
-45.417
-37.189
-31.661
-34.983
-43.441
-51.741
-55.765
-53.131
-43.111
-34.322
-36.83
-44.319
-53.277
-55.09
-50.983
-42.044
-37.869
-38.642
-44.375
-51.051
-56.411
-52.486
-42.568
-36.374
-34.907
-38.017
-44.989
-52.259
-50.258
-41.766
-34.293
-26.986
-30.143
-37.632
-42.291
-43.427
-34.109
-23.951
-15.718
-18.266
-25.669
-29.701
-30.507
-21.907
-10.129
0.44336
2.9457
-1.3238
-4.0628
-4.8638
1.0424
13.758
24.902
29.319
27.813
25.181
21.639
29.331
42.194
51.566
55.271
56.225
48.081
48.568
53.496
60.158
72.873
75.256
74.935
69.207
63.472
60.493
70.043
77.278
78.359
75.585
68.108
58.228
53.641
54.302
55.926
60.289
54.745
43.639
29.099
23.325
20.062
25.592
27.726
24.317
13.983
1.3435
-7.3768
-5.8405
-2.9492
3.6008
2.4454
-2.6442
-11.969
-23.61
-21.624
-16.779
-7.9406
-4.6234
-10.135
-18.988
-25.651
-28.427
-19.748
-13.594
-9.7281
-9.6349
-17.021
-24.675
-28.13
-22.568
-15.177
-5.9426
-7.3807
-13.254
-21.668
-24.552
-21.051
-9.6437
-3.3928
-2.565
-9.7825
-18.546
-22.502
-19.073
-11.052
-4.2692
-0.32553
-4.5497
-13.106
-17.837
-15.709
-10.635
-1.7201
2.4442
-2.2889
-11.201
-17.702
-19.265
-10.542
-2.558
0.10199
-1.8348
-7.0446
-18.498
-19.935
-14.555
-7.3579
0.8691
-2.3839
-11.071
-20.489
-22.558
-20.232
-9.8103
-4.3774
-4.3883
-11.628
-19.569
-27.674
-23.217
-15.024
-9.0993
-8.1901
-11.587
-22.275
-27.963
-28.663
-21.467
-14.602
-10.607
-14.455
-22.31
-28.642
-30.1
-25.445
-21.632
-15.067
-15.917
-21.946
-31.321
-33.87
-29.679
-23.546
-16.182
-17.234
-23.868
-33.447
-35.734
-32.453
-23.845
-18.178
-17.15
-23.598
-32.79
-36.929
-34.241
-25.78
-17.829
-16.172
-17.851
-25.559
-31.974
-28.38
-17.169
-8.594
-1.9083
-3.7692
-12.318
-17.327
-17.772
-10.437
-0.95831
5.5965
4.075
-3.6172
-11.984
-11.863
-5.006
1.122
8.8111
6.086
-3.5462
-14.445
-20.05
-19.766
-13.843
-4.8646
-1.8383
-6.595
-15.096
-22.242
-21.257
-17.488
-12.52
-10.146
-19.126
-30.864
-38.015
-37.12
-32.864
-27.54
-26.157
-31.076
-38.38
-45.082
-48.459
-41.365
-35.202
-28.725
-29.004
-38.371
-45.653
-47.777
-43.257
-36.222
-31.282
-27.655
-34.182
-44.336
-47.315
-47.155
-39.972
-39.598
-49.439
-65.469
-75.378
-74.643
-55.348
-24.146
24.931
92.968
170.55
241.72
312.91
372.2
409.48
418.41
388.4
297.51
174.61
57.287
-18.08
-52.282
-53.385
-42.916
-29.031
-21.289
-19.606
-25.798
-31.263
-28.164
-20.232
-20.718
-28.335
-41.414
-48.187
-46.907
-38.862
-30.783
-30.766
-40.595
-50.132
-55.247
-52.23
-43.488
-36.575
-34.198
-40.093
-50.753
-55.938
-54.185
-48.033
-39.642
-34.058
-39.847
-47.256
-54.221
-52.751
-46.509
-39.018
-35.371
-34.846
-41.601
-49.063
-49.946
-43.982
-35.755
-31.102
-29.979
-33.71
-41.527
-43.938
-38.561
-29.768
-20.025
-17.089
-21.671
-27.892
-29.944
-25.173
-13.73
-5.8612
-0.23671
-0.8501
-6.4786
-6.9113
-5.4293
4.7004
16.339
26.189
25.417
22.759
19.531
21.987
33.477
46.229
51.891
55.169
52.15
45.671
47.038
52.268
64.511
71.916
73.775
69.023
63.448
62.303
64.707
74.262
79.735
81.637
76.292
64.347
56.332
58.863
63.03
65.86
63.724
52.388
40.797
34.128
29.34
31.432
32.297
29.406
22.67
10.803
-0.66647
-7.2486
-4.5696
3.4069
5.1146
0.22505
-9.0074
-16.542
-20.024
-17.59
-11.286
-6.0174
-6.3524
-15.168
-21.621
-26.584
-27.114
-19.668
-10.361
-9.5208
-14.772
-24.572
-29.529
-25.073
-19.033
-12.26
-7.3362
-14.562
-22.098
-25.816
-22.701
-18.657
-7.7513
-3.5594
-7.2525
-14.158
-21.702
-22.317
-16.599
-6.5581
-2.8302
-3.7596
-11.042
-16.583
-20.027
-15.558
-7.26
-1.0257
1.6204
-7.1773
-14.602
-20.566
-16.124
-7.692
0.63449
-1.4957
-3.7491
-14.583
-18.566
-16.094
-8.0084
-0.20934
-0.31601
-4.6028
-15.165
-19.835
-20.645
-13.577
-4.7309
-2.6268
-6.3465
-15.182
-21.622
-26.207
-18.572
-10.65
-6.9543
-7.7884
-18.939
-23.446
-27.998
-23.672
-16.408
-9.0561
-12.256
-18.021
-27.573
-31.696
-28.285
-20.721
-11.231
-11.329
-18.718
-26.725
-33.743
-32.126
-25.86
-15.024
-15.278
-18.753
-27.357
-34.88
-34.496
-25.379
-16.678
-15.774
-18.553
-25.245
-30.475
-32.989
-28.499
-20.802
-16.189
-15.871
-24.777
-31.192
-31.907
-27.844
-17.679
-8.1541
-7.0714
-9.7286
-17.466
-20.894
-16.603
-7.8407
1.9809
4.0148
-0.58533
-9.9475
-15.113
-10.275
-1.6241
5.3745
6.8819
3.9924
-4.7838
-9.0477
-9.2203
-4.9252
-0.50972
2.9217
-4.0326
-15.41
-21.144
-18.484
-12.327
-3.1486
2.2811
-2.0557
-12.423
-22.645
-27.713
-27.207
-18.244
-15.355
-16.699
-25.148
-35.259
-38.274
-38.193
-31.051
-26.635
-26.389
-33.374
-42.334
-50.711
-47.487
-36.236
-30.022
-27.901
-33.397
-41.396
-45.271
-42.826
-37.3
-33.277
-25.478
-29.67
-36.646
-43.737
-43.84
-38.097
-31.57
-32.373
-38.285
-57.992
-75.987
-81.491
-69.64
-51.881
-28.539
-0.23557
38.504
94.944
157.3
228.2
302.76
371.76
414.17
425.76
402.22
348.67
258.29
158.1
71.516
3.3479
-35.584
-57.74
-63.414
-57.686
-36.082
-15.195
-4.5423
-10.761
-22.695
-31.777
-36.888
-31.082
-26.423
-24.179
-23.256
-32.232
-44.31
-49.558
-46.32
-39.454
-34.463
-32.664
-43.061
-49.196
-55.233
-52.159
-42.067
-31.747
-33.537
-41.405
-49.16
-58.453
-52.406
-45.47
-36.392
-35.033
-41.102
-48.914
-52.089
-53.183
-45.895
-35.509
-32.051
-37.959
-42.372
-48.234
-46.659
-42.409
-33.005
-30.445
-30.928
-35.616
-43.007
-44.879
-39.966
-28.796
-24.152
-21.991
-27.684
-32.497
-34.929
-29.569
-21.778
-9.0325
-7.0972
-8.6774
-14.884
-18.92
-14.153
-2.7409
9.0998
15.736
12.168
8.5711
5.1185
10.545
19.643
29.308
38.219
36.478
31.789
30.498
32.925
42.45
52.264
57.95
60.191
56.115
52.619
53.024
58.305
69.556
78.919
79.737
73.987
65.452
61.337
65.732
75.254
80.711
82.627
73.303
62.358
55.327
54.853
60.034
62.879
59.735
53.371
36.766
31.116
24.364
28.473
33.315
30.381
23.623
9.7751
1.3543
-2.1925
1.4739
8.3927
8.0449
7.1598
-4.9995
-14.457
-17.941
-13.593
-8.3806
-0.11478
-3.3527
-9.0629
-20.511
-26.584
-22.231
-15.785
-6.3557
-7.393
-11.652
-21.585
-25.665
-24.196
-17.015
-11.116
-8.2113
-10.584
-18.245
-22.939
-21.677
-14.511
-9.631
-1.5854
-6.3967
-15.273
-21.673
-21.175
-14.485
-4.5856
-1.9712
-0.87398
-9.016
-16.442
-17.914
-11.583
-3.3955
0.86342
1.6398
-6.0514
-13.493
-16.575
-13.236
-3.7986
1.6301
1.5996
-3.6461
-10.564
-16.642
-14.192
-6.0427
0.84605
2.7778
-2.5513
-11.198
-16.924
-18.715
-12.569
-2.6486
0.46311
-4.3271
-12.257
-17.733
-19.253
-11.501
-6.5184
-2.8884
-3.8617
-12.09
-21.528
-22.924
-18.503
-11.306
-6.13
-6.4448
-13.142
-23.497
-24.487
-25.146
-15.799
-8.4621
-9.4881
-15.638
-22.469
-28.559
-26.207
-21.141
-12.235
-11.201
-14.447
-27.117
-30.954
-32.827
-24.646
-17.608
-14.419
-16.255
-26.307
-33.855
-34.323
-27.444
-18.388
-15.815
-16.924
-27.232
-33.609
-33.854
-30.345
-22.219
-14.208
-16.618
-22.237
-29.411
-35.298
-32.044
-22.894
-16.664
-16.595
-21.535
-28.252
-33.445
-29.317
-18.371
-9.3514
-4.0804
-6.2058
-15
-20.086
-19.082
-10.767
-3.4655
3.8501
0.8704
-4.4579
-10.137
-12.453
-4.2875
3.901
10.318
8.9177
-0.52537
-10.747
-13.701
-13.054
-9.0788
-5.3588
-6.9076
-10.373
-17.254
-19.003
-17.908
-12.061
-8.9746
-10.739
-19.361
-26.926
-34.292
-32.498
-27.713
-23.518
-21.899
-26.847
-35.815
-43.262
-42.452
-35.969
-28.294
-26.768
-31.915
-38.629
-48.53
-48.678
-39.113
-30.687
-24.442
-27.263
-33.959
-43
-44.509
-38.596
-29.808
-23.555
-25.39
-34.671
-43.067
-55.508
-62.595
-62.249
-57.482
-46.051
-37.14
-18.367
19.059
84.302
159.75
235.16
308.32
361.68
386.46
392.43
370.93
310.68
222.93
129.78
46.405
-19.798
-57.942
-68.867
-59.891
-36.314
-13.314
-7.4915
-13.281
-31.087
-37.309
-33.349
-25.765
-17.719
-21.553
-32.667
-43.942
-46.429
-45.634
-37.314
-31.467
-30.988
-34.162
-44.514
-49.072
-50.648
-43.05
-32.708
-28.788
-35.58
-45.661
-50.342
-51.651
-43.085
-34.244
-29.635
-34.834
-43.651
-49.602
-48.725
-43.117
-34.68
-30.437
-32.234
-38.898
-45.961
-47.56
-40.723
-32.893
-25.484
-26.196
-32.537
-38.154
-40.762
-36.766
-26.132
-19.16
-18.854
-22.32
-27.797
-33.204
-27.511
-18.786
-8.5749
-3.9088
-5.8291
-10.792
-14.231
-11.415
-0.9595
10.652
15.14
17.045
13.45
8.6177
12.393
21.781
32.103
41.451
42.871
38.317
34.145
35.329
45.063
56.008
65.632
64.015
61.552
54.722
52.028
58.154
64.999
75.047
78.219
74.548
65
57.722
60.614
67.41
72.499
71.97
65.976
51.131
40.881
40.774
43.125
44.552
42.952
35.95
23.539
15.806
9.5019
10.706
15.912
20.328
15.938
4.514
-5.7198
-7.7318
-7.1385
0.86081
4.6862
2.2238
-6.2847
-14.322
-17.186
-14.022
-7.9629
-1.7338
-1.5954
-7.4862
-16.224
-22.468
-20.349
-12.359
-4.3061
-1.066
-5.257
-14.067
-21.081
-18.99
-12.677
-4.4878
-1.2842
-2.2443
-12.419
-17.962
-19.313
-12.34
-1.3111
2.1552
0.98306
-6.2783
-14.559
-14.773
-8.3311
-1.287
5.7237
4.3981
-1.1508
-8.355
-10.343
-6.1444
0.063209
8.4044
6.5145
3.4933
-8.3448
-12.567
-11.335
0.74656
5.7851
10.926
4.6504
-2.1519
-10.08
-11.91
-3.6016
5.5154
7.6536
3.6909
-4.4309
-9.9177
-12.256
-7.319
2.659
4.1023
3.9526
-5.2608
-13.509
-15.734
-9.3372
-3.3344
2.6757
3.3937
-7.1051
-14.3
-18.331
-16.19
-9.9975
-2.6127
-3.4384
-8.4377
-15.321
-24.614
-22.413
-13.29
-7.1706
-7.9864
-11.303
-20.193
-25.172
-25.962
-18.56
-10.389
-7.2927
-13.352
-20.529
-27.973
-28.211
-23.215
-14.281
-8.9435
-10.155
-19.323
-25.464
-28.623
-22.272
-15.381
-9.4383
-10.675
-17.058
-25.181
-28.257
-26.237
-16.123
-9.69
-6.3875
-9.3052
-12.237
-13.663
-13.549
-7.3828
3.8661
9.1498
3.8093
-4.2147
-10.317
-3.0976
2.4515
9.7681
12.86
10.641
4.3042
-5.139
-5.2119
-3.0461
4.8941
5.0622
4.67
-7.5084
-12.472
-12.438
-8.0712
0.63118
5.3635
3.107
-7.078
-18.976
-24.026
-22.21
-16.331
-12.933
-10.424
-18.094
-28.984
-36.625
-34.769
-28.639
-23.163
-19.621
-23.936
-32.192
-40.55
-39.353
-33.571
-23.997
-19.877
-24.329
-32.935
-39.416
-39.249
-32.797
-25.811
-20.893
-23.59
-30.823
-41.527
-51.174
-59.756
-61.325
-50.909
-40.188
-28.067
-7.6465
38.297
116.79
207.37
292.8
358.61
398.17
409.17
387.21
323.88
228.15
122.94
33.678
-24.706
-56.167
-59.657
-46.453
-20.614
-2.0174
5.1111
-8.2872
-23.822
-32.32
-33.296
-22.991
-18.978
-19.839
-24.323
-33.591
-40.585
-44.503
-39.036
-31.243
-28.509
-28.879
-35.213
-42.157
-46.081
-42.064
-35.101
-28.84
-25.582
-31.373
-40.115
-45.456
-44.439
-35.471
-27.345
-24.998
-28.141
-38.002
-43.126
-44.109
-32.768
-24.464
-21.158
-27.13
-32.429
-39.095
-38.447
-30.341
-20.171
-13.694
-16.005
-22.426
-27.728
-26.794
-19.174
-11.1
-0.24739
0.23278
-4.3531
-10.393
-10.172
-7.9278
6.1108
16.232
23.292
19.442
14.828
10.659
18.718
31.573
41.556
48.87
47.824
44.082
40.981
45.917
55.163
64.448
71.818
70.926
64.647
57.926
58.503
69.592
79.813
85.353
83.051
77.582
68.228
67.158
70.821
76.937
80.791
79.234
69.614
57.577
49.83
49.096
55.13
55.228
51.27
40.425
27.833
16.682
14.736
17.565
24.528
21.854
12.84
0.11168
-8.0078
-9.1026
-4.864
2.4463
4.8464
-1.0473
-9.3618
-18.111
-20.519
-14.388
-7.1451
-1.6315
-3.9768
-11.458
-20.779
-22.807
-16.139
-10.06
-4.2471
-2.805
-12.383
-21.38
-23.133
-19.908
-11.912
-2.8084
-1.7226
-7.5295
-15.13
-19.33
-17.313
-8.4706
1.5443
0.90402
-0.12909
-8.9067
-14.055
-15.132
-6.8504
1.4866
3.8735
0.94198
-7.3971
-13.135
-13.51
-7.3568
0.87534
6.358
2.9936
-5.4771
-11.769
-14.777
-9.1194
-0.071767
4.7218
4.1754
-2.3722
-10.348
-14.11
-11.919
-1.9488
2.1643
3.2875
-2.4899
-14.099
-22.34
-17.359
-9.5049
-2.4395
-1.0433
-7.0949
-16.931
-21.116
-21.164
-15.813
-6.4431
-3.0993
-7.1072
-16.475
-25.161
-25.453
-20.271
-12.098
-6.7043
-11.098
-18.505
-26.701
-28.679
-24.091
-18.146
-10.384
-11.853
-20.289
-26.235
-31.083
-26.01
-18.068
-14.862
-13.618
-17.366
-25.067
-33.432
-30.486
-22.547
-13.354
-9.909
-16.037
-24.008
-30.26
-26.239
-16.742
-6.2846
2.9977
-2.1719
-7.6509
-14.282
-14.395
-7.0798
4.0463
7.245
5.6928
-0.67379
-5.656
-10.451
-1.8992
7.8135
12.371
10.931
2.7402
-7.9778
-11.844
-12.03
-5.339
0.87683
1.3985
-1.074
-8.7828
-14.446
-17.8
-12.861
-7.3538
-8.5788
-13.693
-25.992
-32.602
-34.613
-28.778
-20.933
-17.598
-25.116
-34.011
-41.713
-40.467
-36.706
-27.494
-23.67
-26.695
-35.159
-42.754
-43.05
-37.384
-28.07
-23.043
-23.616
-26.39
-37.543
-41.264
-37.889
-33.797
-27.738
-28.757
-39.599
-60.144
-80.295
-76.305
-59.506
-36.456
-12.001
19.994
69.106
139.81
217.74
295.19
366.68
416.99
426.8
396.26
316.62
211.56
104.94
24.117
-18.656
-41.185
-51.573
-52.674
-42.629
-21.115
-3.2188
-2.3915
-9.7606
-20.207
-28.288
-35.241
-32.095
-24.952
-22.637
-22.527
-29.544
-40.363
-49.532
-46.246
-42.177
-34.244
-31.214
-33.478
-44.122
-49.887
-48.73
-42.63
-32.729
-28.581
-35.283
-42.135
-48.63
-48.279
-42.662
-31.678
-27.876
-30.657
-36.876
-43.53
-43.168
-37.766
-33.317
-26.851
-27.136
-30.116
-37.804
-37.838
-34.185
-25.465
-20.072
-15.44
-20.999
-26.893
-32.617
-28.822
-19.683
-9.1645
-4.6065
-6.9387
-12.201
-16.526
-12.3
-2.5505
9.9422
16.02
15.637
12.164
9.7403
10.801
22.065
34.978
44.045
43.591
40.441
36.546
37.606
46.941
57.611
67.357
67.135
66.947
60.999
59.911
65.758
76.719
85.162
85.613
83.826
76.886
71.336
73.343
80.521
85.873
90.234
83.873
69.771
63.623
59.868
64.468
67.801
66.868
58.624
46.294
33.875
28.805
29.944
33.862
33.048
26.701
15.541
6.5407
1.512
2.8587
6.617
13.434
9.2035
-1.055
-10.063
-13.145
-10.237
-2.2258
2.2074
1.6042
-4.2219
-12.148
-16.65
-14.611
-7.4515
-0.14512
0.19051
-1.1497
-10.205
-16.328
-17.111
-9.565
-1.2537
1.8523
-0.32928
-6.6413
-11.111
-12.251
-5.1299
4.8471
8.1132
4.7827
-3.4473
-7.5371
-10.579
-2.1481
2.7088
11.533
9.2012
4.8361
-3.1675
-6.1324
-7.1175
3.8749
13.183
14.483
6.6867
-0.11743
-6.5336
-4.5325
7.5124
14.75
16.129
9.8892
-1.119
-6.2897
-6.1504
-1.6256
6.7325
10.89
6.7072
-2.6513
-9.152
-10.267
-4.0941
0.8931
8.107
2.7222
-4.4937
-11.508
-16.497
-13.106
-2.346
0.43414
2.1691
-7.0833
-18.055
-21.114
-19.224
-7.2442
-1.8147
-1.3893
-7.1938
-16.138
-23.681
-20.654
-14.45
-4.0863
-3.7483
-7.1602
-18.295
-25.414
-25.092
-15.439
-8.1372
-4.1723
-9.4943
-16.792
-23.084
-24.048
-15.942
-7.1792
-2.1257
-4.4418
-9.4193
-16.26
-12.318
-4.1767
2.396
7.234
9.2237
2.1823
-4.8286
-5.1483
-0.49327
8.5027
16.192
15.879
11.086
3.884
0.055376
2.0436
8.4988
13.167
14.569
4.915
-6.5404
-12.746
-10.186
-3.1951
7.2106
11.939
4.2648
-6.1588
-16.221
-16.816
-13.556
-8.0157
-3.3523
-8.8457
-17.607
-25.04
-27.897
-24.967
-17.82
-17.202
-14.001
-21.6
-29.374
-31.907
-30.716
-24.975
-15.067
-14.89
-21.406
-28.837
-37.189
-32.499
-22.798
-16.566
-15.848
-16.77
-28.826
-35.365
-35.525
-32.902
-37.145
-45.716
-56.052
-57.823
-51.539
-33.43
2.1651
64.315
138.26
216.46
280.12
337.39
384.76
412.2
413.63
366.06
268.78
150.87
46.281
-19.704
-45.07
-43.419
-35.115
-24.552
-11.112
-2.9036
-10.487
-14.656
-12.658
-4.3409
-1.8296
-8.9704
-20.975
-29.25
-29.265
-23.824
-19.386
-14.02
-20.041
-30.454
-37.216
-37.571
-30.368
-23.065
-22.535
-22.932
-30.516
-35.914
-38.91
-33.103
-27.892
-19.09
-20.819
-26.583
-34.591
-37.139
-33.676
-23.65
-17.782
-12.987
-20.843
-28.176
-34.036
-33.951
-22.407
-13.778
-12.502
-14.209
-25.557
-28.607
-27.035
-16.221
-7.9983
-4.2411
-6.6701
-11.876
-16
-14.913
-7.9138
0.71856
8.7747
11.589
4.7081
0.80446
1.5877
8.6649
17.363
28.395
30.423
27.189
25.944
27.614
32.527
41.792
53.463
59.834
56.744
50.584
48.119
52.433
63.829
74.089
80.139
76.559
69.553
67.725
68.193
75.688
86.69
93.535
88.409
83.417
74.213
73.013
79.808
86.518
88.846
82.847
72.886
59.73
53.348
55.507
56.44
60.617
54.559
42.106
30.735
26.496
22.616
28.991
29.566
28.737
20.55
9.4964
2.2296
2.6254
8.9021
15.967
16.949
10.501
1.6895
-4.0834
-6.7622
2.5377
10.501
13.507
8.5704
1.6014
-6.7718
-8.1556
-5.3709
6.5144
12.026
10.03
3.8848
-3.4578
-5.8365
-1.4854
8.6357
15.806
15.549
7.9032
0.54101
-2.4934
-2.1773
11.189
15.56
17.531
11.345
2.493
-0.56774
-1.1631
7.9137
14.764
19.729
14.483
7.8944
0.14277
2.2588
10.33
17.268
20.479
16.778
6.8414
0.26197
-0.36379
5.3852
13.478
16.231
13.269
6.9213
1.3445
-4.0671
1.4789
8.824
13.025
13.581
7.7254
-0.66078
-7.5202
-3.0136
4.3719
7.5803
7.3779
2.18
-8.5177
-14.422
-11.016
-3.083
3.6305
6.5997
0.4826
-8.9874
-14.746
-14.743
-7.7711
-1.8254
-0.51977
-3.1383
-11.08
-19.735
-19.429
-13.681
-5.5307
-0.72121
-1.675
-10.063
-20.69
-21.12
-17.544
-9.1488
-1.9229
-3.3878
-10.295
-18.717
-20.561
-16.994
-8.5631
-2.3714
0.35998
-5.8905
-10.574
-12.404
-6.9348
2.9821
8.6078
11.501
9.4044
3.043
-1.6245
0.34987
7.1878
18.028
22.375
16.916
10.089
2.3759
2.5017
11.131
16.354
19.36
14.525
3.05
-7.7861
-9.3304
-3.6501
7.9677
15.304
15.714
6.5654
-4.9663
-10.665
-10.838
-4.2953
-1.2632
-0.81027
-10.176
-19.687
-26.223
-24.634
-17.901
-14.583
-14.811
-18.714
-26.756
-32.299
-31.527
-25.022
-18.311
-13.754
-16.865
-24.554
-31.484
-34.726
-26.249
-21.799
-14.4
-15.064
-22.774
-32.033
-33.774
-31.857
-28.789
-31.234
-44.065
-55.683
-54.437
-42.866
-18.537
28.228
90.966
161.9
228.32
286.11
338.07
382.83
406.23
404.04
360.66
274.1
164.54
64.156
-4.3574
-38.231
-47.597
-42.784
-33.636
-20.352
-11.535
-10.949
-11.381
-5.7057
-5.2124
-7.0106
-16.91
-26.182
-31.745
-25.676
-21.675
-16.338
-19.28
-26.752
-35.259
-39.642
-36.555
-30.066
-24.316
-23.061
-28.342
-38.601
-42.005
-37.534
-32.018
-24.769
-21.847
-26.564
-37.604
-41.334
-39.715
-34.137
-25.202
-20.528
-24.787
-28.738
-37.747
-36.767
-32.99
-23.501
-19.398
-19.397
-25.108
-33.994
-35.363
-28.485
-17.864
-11.711
-12.461
-18.564
-25.898
-28.471
-22.74
-12.414
-3.4741
-0.87584
-6.0102
-13.462
-15.191
-9.8479
0.86197
9.4215
16.453
15.538
9.2037
6.3822
11.199
21.055
34.067
39.544
38.02
34.004
29.192
30.428
40.259
54.552
62.411
63.364
57.841
52.186
54.864
61.567
71.966
80.067
79.482
72.595
66.317
63.588
68.11
76.378
82.46
83.259
74.191
63.61
56.685
54.955
59.78
62.53
59.644
52.628
37.108
27.196
22.101
22.136
29.246
27.652
20.959
10.836
-0.92415
-3.5314
0.4168
6.6779
8.3875
7.2146
-1.2895
-12.802
-13.994
-12.301
-2.0355
1.9375
2.3532
-5.4097
-12.562
-18.285
-13.881
-7.7371
0.33646
-1.751
-7.6992
-15.268
-20.297
-17.145
-7.3381
-0.4915
3.7375
-0.25618
-9.8671
-11.892
-12.009
-2.889
3.3269
7.7515
4.978
-1.2388
-6.0106
-7.5424
-2.5166
6.7447
11.387
9.1565
1.6613
-6.7931
-7.9441
-3.267
5.9478
10.893
11.332
0.6126
-4.5265
-8.2765
-5.9049
2.2374
8.3388
10.274
2.3182
-5.2805
-13.327
-9.1588
-4.3175
3.5421
5.7467
0.71654
-8.9028
-14.896
-15.977
-8.8536
-1.6719
1.7178
-2.0546
-12.237
-18.98
-20.516
-14.518
-7.2775
-0.63167
-5.843
-14.326
-24.786
-23.945
-20.266
-14.046
-6.1063
-6.6814
-14.403
-22.524
-28.253
-25.885
-16.77
-8.6907
-6.7449
-15.669
-23.248
-30.311
-27.177
-18.351
-10.468
-11.228
-12.253
-23.901
-27.926
-26.004
-17.845
-8.635
-2.2589
-3.0733
-8.2789
-11.996
-15.487
-7.4777
0.72574
4.3278
3.1171
0.68545
-5.7238
-7.899
-3.2996
3.8607
13.839
12.377
4.7213
-2.4637
-9.3363
-7.041
-1.8381
0.41291
0.43559
-7.595
-15.365
-16.506
-12.248
-5.2166
